#1
float table_1D_1(27,5) #h(J/kg), T(K), liquid fraction, rho(kg/m3), k(W/mK)
0.0009986 298.15 0.00 5249.25 13.128
1200.9023 300.00 0.00 5248.98 13.044
34984.555 350.00 0.00 5241.47 11.111
71085.984 400.00 0.00 5233.59 9.6776
109216.65 450.00 0.00 5225.37 8.5716
149152.48 500.00 0.00 5216.84 7.6924
190714.67 550.00 0.00 5208.02 6.9768
233758.13 600.00 0.00 5198.92 6.3830
278165.06 650.00 0.00 5189.56 5.8824
323844.25 700.00 0.00 5179.95 5.4546
370740.48 750.00 0.00 5170.12 5.0848
418867.94 800.00 0.00 5160.06 4.7619
468407.09 850.00 0.00 5149.79 4.4776
519972.13 900.00 0.00 5139.33 4.2254
575341.39 950.00 0.00 5128.68 4.0000
625675.84 1000.00 0.00 5118.18 3.9514
670719.07 1050.00 0.00 5108.14 3.9039
715154.83 1100.00 0.00 5098.46 3.8576
759614.53 1150.00 0.00 5089.10 3.8123
804181.28 1200.00 0.00 5080.00 3.7681
848864.19 1250.00 0.00 5071.11 3.7249
893662.42 1300.00 0.00 5062.42 3.6827
938573.95 1350.00 0.00 5053.89 3.6415
983596.69 1400.00 0.00 5045.49 3.6011
1028728.6 1450.00 0.00 5037.21 3.5616
1073967.9 1500.00 0.00 5029.03 3.5230
1119312.7 1550.00 0.00 5020.94 3.4853
